# U/t=6.0,M=20, N=10, max=1, PBC
# theta S1(n=1) S2(n=1) S3(n=1)
0.0 0.019826836553300975 0.005845563960693578 0.004390605030486938
0.0031415926535897933 0.01987284910906073 0.005861227973362304 0.004402387625206394
0.006283185307179587 0.020010742444993124 0.005908219009598259 0.004437735214403382
0.00942477796076938 0.020240088410099943 0.005986534064843063 0.004496647213756422
0.012566370614359173 0.020560189050575772 0.00609616813045033 0.004579122648596279
0.015707963267948967 0.02097009836692454 0.006237114191880888 0.00468516015253595
0.01884955592153876 0.021468649763126013 0.006409363226845599 0.004814757966050021
0.021991148575128554 0.022054486904216297 0.0066129042023566065 0.004967913934229795
0.025132741228718346 0.022726095812864333 0.0068477240713948895 0.005144625504237332
0.02827433388230814 0.023481836390767175 0.007113807768897917 0.005344889722237234
0.031415926535897934 0.024319972019873237 0.007411138206868451 0.005568703229660965
0.034557519189487726 0.025238696372024805 0.007739696269431384 0.005816062259412558
0.03769911184307752 0.026236156970417035 0.008099460806600511 0.006086962631090653
0.04084070449666731 0.027310475364783926 0.008490408628179846 0.006381399746290928
0.04398229715025711 0.02845976401175898 0.008912514496028923 0.006699368582661069
0.0471238898038469 0.02968214009210568 0.00936575111689919 0.007040863688355881
0.05026548245743669 0.030975736580079793 0.009850089133510487 0.007405879175146346
0.053407075111026485 0.03233871090868634 0.010365497116026301 0.007794408711792045
0.05654866776461628 0.033769251579016224 0.010911941552052884 0.008206445516272254
0.059690260418206076 0.03526558304015692 0.011489386836480264 0.008641982347860289
0.06283185307179587 0.036825969138277515 0.01209779526072774 0.00910101149870135
0.06597344572538566 0.03844871539848782 0.012737127001198445 0.009583524784752662
0.06911503837897545 0.04013217036710959 0.013407340106949217 0.01008951353607701
0.07225663103256524 0.041874726207530966 0.01410839048720458 0.010618968586964872
0.07539822368615504 0.04367481871294476 0.014840231897860878 0.011171880265225642
0.07853981633974483 0.04553092686911109 0.015602815927661773 0.011748238381170673
0.08168140899333462 0.04744157207880795 0.016396091983139183 0.012348032215587335
0.08482300164692443 0.04940531713548246 0.017220007273819782 0.012971250507829879
0.08796459430051422 0.051420765019269954 0.018074506796321277 0.01361788144298659
0.09110618695410401 0.05348655757238552 0.01895953331784561 0.014287912638499378
0.0942477796076938 0.05560137409905419 0.019875027358810193 0.014981331130028419
0.0973893722612836 0.05776392992471058 0.020820927175457804 0.015698123357188454
0.10053096491487339 0.05997297494297005 0.02179716874123372 0.01643827514824192
0.10367255756846318 0.06222729216971601 0.022803685728317813 0.017201771704775215
0.10681415022205297 0.0645256963216374 0.02384040948742472 0.017988597584939203
0.10995574287564276 0.06686703242914716 0.024907269027877987 0.018798736686746587
0.11309733552923255 0.06925017449231152 0.026004190997098497 0.019632172230772404
0.11623892818282235 0.07167402418629676 0.027131099658612712 0.020488886741577783
0.11938052083641215 0.07413750961816579 0.02828791687043397 0.021368862029234936
0.12252211349000194 0.0766395841385985 0.029474562062236753 0.022272079169757042
0.12566370614359174 0.07917922520838205 0.030690952211930522 0.023198518484878417
0.12880529879718153 0.08175543331949697 0.03193700182225623 0.024148159521644175
0.13194689145077132 0.08436723097078591 0.033212622895677946 0.025120981030489542
0.1350884841043611 0.08701366169569225 0.034517724909918 0.026116960943571854
0.1382300767579509 0.08969378914166803 0.03585221479167622 0.027136076351491845
0.1413716694115407 0.09240669619808806 0.037215996890722636 0.0281783034800287
0.1445132620651305 0.09515148417145802 0.03860897295283028 0.029243617665732913
0.14765485471872028 0.09792727200563656 0.04003104209208752 0.030331993330761087
0.15079644737231007 0.10073319554384241 0.041482100763569285 0.031443403957676974
0.15393804002589986 0.10356840683260016 0.042962042733379224 0.032577822061959694
0.15707963267948966 0.10643207346231964 0.044470759050623254 0.033735219165623054
0.16022122533307945 0.10932337794528468 0.046008138016714106 0.03491556576848387
0.16336281798666924 0.11224151712700436 0.04757406515550944 0.03611883131968563
0.16650441064025903 0.11518570163041009 0.049168423181732646 0.03734498418754795
0.16964600329384885 0.11815515532982523 0.05079109196981424 0.038593991629328084
0.17278759594743864 0.1211491148535826 0.052441948521689596 0.039865819759778987
0.17592918860102844 0.12416682911390531 0.054120866933873746 0.04116043351872456
0.17907078125461823 0.12720755886157997 0.05582771836432565 0.04247779663801454
0.18221237390820802 0.1302705762644636 0.05756237099889461 0.04381787160769246
0.1853539665617978 0.13335516450878604 0.05932469001635976 0.04518061964060127
0.1884955592153876 0.13646061742066706 0.061114537554428416 0.04656600063719285
0.1916371518689774 0.13958623910867463 0.06293177267304184 0.04797397314777463
0.1947787445225672 0.14273134362312678 0.06477625131993081 0.04940449433587579
0.19792033717615698 0.14589525463471364 0.06664782629324995 0.05085751993883969
0.20106192982974677 0.14907730512892625 0.06854634720432351 0.052333004227888225
0.20420352248333656 0.15227683711496587 0.07047166044151743 0.05383089996839496
0.20734511513692636 0.15549320135125466 0.0724236091308681 0.055351158377071386
0.21048670779051615 0.15872575708285597 0.07440203309867455 0.05689372907993606
0.21362830044410594 0.16197387179278833 0.07640676883235642 0.0584585600682801
0.21676989309769573 0.16523692096562126 0.07843764944081988 0.060045597653525906
0.21991148575128552 0.1685142878620618 0.08049450461508734 0.06165478642151756
0.22305307840487532 0.171805363304403 0.08257716058846531 0.06328606918568358
0.2261946710584651 0.1751095454732745 0.0846854400949244 0.06493938693803303
0.2293362637120549 0.1784262397125973 0.08681916232911968 0.06661467880053928
0.2324778563656447 0.18175485834449256 0.08897814290485773 0.06831188197448501
0.2356194490192345 0.1850948204931986 0.09116219381277757 0.07003093168830699
0.2387610416728243 0.18844555191619827 0.093371123379006 0.07177176114524197
0.2419026343264141 0.1918064848436991 0.09560473622252053 0.07353430146903195
0.2450442269800039 0.19517705782573902 0.0978628332121314 0.07531848164834853
0.24818581963359368 0.19855671558510135 0.10014521142414479 0.07712422848069433
0.25132741228718347 0.2019449088782177 0.10245166409833484 0.07895146651397411
0.25446900494077324 0.20534109436113113 0.10478198059509047 0.08080011798785725
0.25761059759436306 0.20874473446216824 0.10713594635108326 0.082670102772886
0.2607521902479528 0.21215529725969162 0.10951334283566494 0.08456133830898382
0.26389378290154264 0.21557225636536792 0.11191394750668104 0.08647373954231163
0.2670353755551324 0.218995090812526 0.11433753376613565 0.08840721886078873
0.2701769682087222 0.22242328494957597 0.11678387091526554 0.09036168602789463
0.27331856086231204 0.22585632833701963 0.1192527241110426 0.0923370481162391
0.2764601535159018 0.22929371565011802 0.12174385432049872 0.09433320943815149
0.2796017461694916 0.23273494658465355 0.1242570182767202 0.09635007147615049
0.2827433388230814 0.23617952576747703 0.12679196843344176 0.09838753281094093
0.2858849314766712 0.2396269626695937 0.12934845292133534 0.10044548904922612
0.289026524130261 0.24307677152425633 0.1319262155024119 0.1025238327486182
0.2921681167838508 0.24652847124752064 0.13452499552579322 0.10462245334204479
0.29530970943744056 0.24998158536173465 0.13714452788389275 0.10674123706088823
0.2984513020910304 0.2534356419237138 0.13978454296672682 0.1088800668551273
0.30159289474462014 0.25689017345384224 0.14244476661907424 0.11103882231395934
0.30473448739820996 0.2603447168693269 0.14512492009595057 0.11321737958348477
0.3078760800517997 0.26379881341998157 0.14782472001882319 0.11541561128322009
0.31101767270538955 0.2672520086257242 0.15054387833298488 0.11763338642172538
0.3141592653589793 0.2707038522179568 0.15328210226352823 0.11987057030937986
0.31730085801256913 0.2741538980815328 0.15603909427403106 0.12212702447136792
0.3204424506661589 0.27760170420078634 0.15881455202327865 0.12440260655730428
0.3235840433197487 0.2810468326063815 0.16160816832416014 0.12669717025059857
0.3267256359733385 0.28448884932472396 0.16441963110243973 0.12901056517576848
0.3298672286269283 0.2879273243292091 0.16724862335641344 0.13134263680444924
0.33300882128051806 0.2913618314937798 0.1700948231164907 0.1336932263593238
0.3361504139341079 0.294791948547215 0.17295790340693173 0.1360621707176235
0.3392920065876977 0.29821725703094515 0.1758375322059842 0.1384493023113511
0.34243359924128747 0.3016373422561607 0.1787333724098592 0.14085444902826483
0.3455751918948773 0.30505179326483 0.18164508179470662 0.14327743410922578
0.34871678454846705 0.30846020279047437 0.18457231298155863 0.14571807604559384
0.35185837720205687 0.31186216722161797 0.18751471340089498 0.14817618847413927
0.35499996985564664 0.3152572865657737 0.1904719252592697 0.15065158007128332
0.35814156250923646 0.3186451644155368 0.19344358550615404 0.15314405444524226
0.3612831551628262 0.3220254079150582 0.19642932580299544 0.15565341002756705
0.36442474781641604 0.32539762772869407 0.19942877249249102 0.15817943996255046
0.3675663404700058 0.32876143801023616 0.20244154656989632 0.16072193199585882
0.3707079331235956 0.33211645637354437 0.20546726365525014 0.16328066836151356
0.3738495257771854 0.33546230386414155 0.20850553396753968 0.1658554256680067
0.3769911184307752 0.33879860493196867 0.21155596230002516 0.16844597478293588
0.38013271108436497 0.3421249874052199 0.21461814799723689 0.1710520807165441
0.3832743037379548 0.3454410824649248 0.2176916849338344 0.17367350250429858
0.38641589639154456 0.3487465246204784 0.2207761614953423 0.17630999308853346
0.3895574890451344 0.35204095168665983 0.22387116056008072 0.17896129919864068
0.39269908169872414 0.35532400476062165 0.22697625948389577 0.18162716123101807
0.39584067435231396 0.3585953282004506 0.23009103008627374 0.1843073131277353
0.3989822670059037 0.3618545696038309 0.23321503863926152 0.18700148225500168
0.40212385965949354 0.3651013797887095 0.23634784585720636 0.18970938927996217
0.40526545231308336 0.3683354127729115 0.23948900689077757 0.19243074804845062
0.4084070449666731 0.37155632575634856 0.24263807132143755 0.19516526546087043
0.41154863762026295 0.3747637791023406 0.24579458315986003 0.197912641348839
0.4146902302738527 0.37795743632091394 0.24895808084571103 0.200672568350738
0.41783182292744253 0.38113696405154407 0.25212809725118346 0.2034447317879784
0.4209734155810323 0.38430203204778435 0.2553041596861303 0.20622880954046297
0.4241150082346221 0.38745231316127793 0.25848578990714977 0.2090244719230374
0.4272566008882119 0.39058748332724 0.2616725041287493 0.21183138156162507
0.4303981935418017 0.39370722154971727 0.2648638130383887 0.21464919327047172
0.43353978619539146 0.39681120988855056 0.268059221813274 0.21747755392898105
0.4366813788489813 0.39989913344559413 0.27125823014189443 0.2203161023604987
0.43982297150257105 0.40297068035184 0.27446033224846733 0.2231644692117709
0.44296456415616087 0.40602554175572436 0.2776650169198063 0.22602227683281084
0.44610615680975063 0.409063411811037 0.2808717675369179 0.2288891391590573
0.44924774946334045 0.41208398766544185 0.28408006210982917 0.2317646615948039
0.4523893421169302 0.4150869694495647 0.2872893733163622 0.23464844089862158
0.45553093477052004 0.4180720602670065 0.2904991685435401 0.23754006506987935
0.4586725274241098 0.4210389661835996 0.29370890993487375 0.24043911323903844
0.4618141200776996 0.4239873962182137 0.29691805443988706 0.24334515555910086
0.4649557127312894 0.4269170623330112 0.30012605386911195 0.24625775310087272
0.4680973053848792 0.4298276794248652 0.30333235495210165 0.2491764577503499
0.471238898038469 0.4327189653163743 0.3065363994009118 0.25210081211033497
0.4743804906920588 0.43559064074814735 0.30973762397666915 0.2550303494046604
0.4775220833456486 0.43844242937017475 0.3129354605622403 0.2579645933875643
0.48066367599923837 0.44127405773482486 0.3161293362377484 0.26090305825597593
0.4838052686528282 0.4440852552891301 0.3193186733623379 0.26384524856758507
0.48694686130641796 0.4468757543678832 0.3225028896595261 0.2667906591628788
0.4900884539600078 0.4496452901868957 0.32568139830818277 0.26973877509307487
0.49323004661359754 0.45239360083656344 0.32885360803781793 0.2726890715531418
0.49637163926718736 0.4551204272756051 0.33201892322943216 0.2756410138212577
0.4995132319207771 0.45782551332516386 0.3351767440210831 0.27859405720432795
0.5026548245743669 0.4605086056628931 0.33832646641891584 0.28154764699048407
0.5057964172279568 0.46316945381789365 0.34146748241291824 0.2845012184083697
0.5089380098815465 0.46580781016519923 0.34459918009855217 0.2874541965944122
0.5120796025351363 0.46842342992060315 0.3477209438035369 0.2904059965679142
0.5152211951887261 0.4710160711365683 0.3508321542194479 0.29335602321414056
0.5183627878423159 0.4735854946965419 0.35393218854041253 0.29630367127744384
0.5215043804959056 0.4761314643115062 0.3570204206051941 0.299248325362095
0.5246459731494955 0.47865374651535886 0.36009622104642336 0.3021893599440646
0.5277875658030853 0.4811521106610135 0.36315895744478466 0.30512613939251887
0.5309291584566751 0.4836263289162872 0.36620799448914143 0.30805801800220234
0.5340707511102648 0.486076176260831 0.3692426941416418 0.3109843400364891
0.5372123437638546 0.48850143048181804 0.37226241580985775 0.31390443978303395
0.5403539364174444 0.4909018721713174 0.3752665165228968 0.31681764162022485
0.5434955290710343 0.4932772847227751 0.37825435111455663 0.31972326009722574
0.5466371217246241 0.49562745432798305 0.3812252724116738 0.32262060002667603
0.5497787143782138 0.4979521699742131 0.38417863142823583 0.325508956590967
0.5529203070318036 0.500251223441806 0.38711377756461696 0.3283876154620793
0.5560618996853934 0.5025244093005612 0.3900300588143706 0.3312558529373639
0.5592034923389833 0.5047715249085027 0.39292682197365636 0.334112936087946
0.562345084992573 0.506992370408764 0.3958034128588359 0.3369581229245018
0.5654866776461628 0.5091867487273523 0.39865917652865734 0.33979066257815127
0.5686282702997526 0.5113544655711562 0.40149345751177146 0.3426097954975047
0.5717698629533424 0.513495329426152 0.4043056000396015 0.3454147536623742
0.5749114556069321 0.5156091515549877 0.4070949482852675 0.34820476081511265
0.578053048260522 0.5176957459954217 0.4098608466072182 0.3509790327090889
0.5811946409141118 0.5197549295588306 0.41260263979763234 0.3537367773746789
0.5843362335677016 0.5217865218280986 0.4153196733371467 0.35647719540450984
0.5874778262212913 0.5237903451563941 0.4180112936532452 0.3591994802562417
0.5906194188748811 0.52576622466575 0.42067684838413744 0.36190281857475437
0.5937610115284709 0.5277139882454165 0.4233156866473955 0.36458639053349273
0.5969026041820608 0.5296334665510063 0.4259271593125984 0.3672493701948145
0.6000441968356505 0.5315244930029106 0.4285106192790553 0.3698909258904157
0.6031857894892403 0.5333869037851175 0.43106542175752605 0.3725102206213635
0.6063273821428301 0.5352205378446149 0.43359092455550297 0.37510641247766374
0.6094689747964199 0.5370252368898618 0.43608648836719954 0.3776786550784115
0.6126105674500097 0.5388008453902553 0.43855147706659414 0.3802260980315708
0.6157521601035995 0.5405472105748843 0.4409852580043263 0.3827478874140162
0.6188937527571893 0.5422641824320733 0.4433872023075667 0.3852431662714353
0.6220353454107791 0.5439516137084177 0.44575668518307454 0.38771107513818004
0.6251769380643689 0.5456093599080138 0.44809308622312605 0.39015075257694853
0.6283185307179586 0.5472372792920868 0.45039578971374006 0.3925613357378501
0.6314601233715484 0.5488352328779786 0.4526641849454678 0.3949419609368521
0.6346017160251383 0.5504030844389951 0.4548976665259805 0.39729176425311596
0.6377433086787281 0.5519407005037205 0.4570956346944621 0.39960988214482285
0.6408849013323178 0.5534479503554617 0.45925749563770424 0.4018954520833322
0.6440264939859076 0.5549247060317688 0.4613826618070971 0.40414761320466
0.6471680866394974 0.5563708423244065 0.46347055223639844 0.4063655069779468
0.6503096792930873 0.5577862367784672 0.4655205928605297 0.4085482778905103
0.653451271946677 0.5591707696925581 0.4675322168339764 0.4106950741481099
0.6565928646002668 0.5605243241181088 0.46950486484975995 0.41280504839045573
0.6597344572538566 0.5618467858593639 0.4714379854574444 0.41487735842027673
0.6628760499074464 0.5631380434728079 0.4733310353808844 0.4169111679457389
0.6660176425610361 0.5643979882675136 0.47518347983418874 0.4189056473344075
0.669159235214626 0.5656265143044759 0.4769947928370333 0.42085997437866984
0.6723008278682158 0.5668235183965256 0.4787644575277512 0.4227733350706693
0.6754424205218056 0.5679889001082752 0.48049196647417514 0.42464492438573265
0.6785840131753954 0.5691225617561169 0.4821768219820979 0.42647394707323594
0.6817256058289851 0.5702244084079635 0.48381853640087646 0.428259618453418
0.6848671984825749 0.5712943478830983 0.48541663242584976 0.43000116521883625
0.6880087911361648 0.5723322907521742 0.4869706433969636 0.4316978262388087
0.6911503837897546 0.5733381503373658 0.4884801135933001 0.43334885336538465
0.6942919764433443 0.5743118427119502 0.48994459852373806 0.43495351223971257
0.6974335690969341 0.5752532867005802 0.4913636652122979 0.4365110830964265
0.7005751617505239 0.5761624038792412 0.49273689247868635 0.43802086156503606
0.7037167544041137 0.5770391185750405 0.4940638712135579 0.4394821594665559
0.7068583470577035 0.5778833578663769 0.4953442046475178 0.44089430560318466
0.7099999397112933 0.5786950515830243 0.4965775086141808 0.4422566465398319
0.7131415323648831 0.5794741323059402 0.49776341180682593 0.44356854737559015
0.7162831250184729 0.5802205353674434 0.49890155602788555 0.44482939250311304
0.7194247176720626 0.580934198851137 0.49999159643141455 0.4460385863544425
0.7225663103256524 0.5816150635921042 0.5010332017578012 0.44719555413122825
0.7257079029792423 0.5822630731767728 0.50202605456081 0.4482997425178228
0.7288494956328321 0.5828781739432509 0.5029698514260814 0.44935062037511697
0.7319910882864218 0.5834603149808606 0.5038643031817163 0.450347679413992
0.7351326809400116 0.5840094481306006 0.5047091350992772 0.4512904348457272
0.7382742735936014 0.5845255279851425 0.5055040870861083 0.4521784260084978
0.7414158662471912 0.5850085118889354 0.5062489138680824 0.45301121696786506
0.7445574589007811 0.5854583599377396 0.5069433851632175 0.45378839709017216
0.7476990515543708 0.5858750349794848 0.507587285844247 0.45450958158612353
0.7508406442079606 0.5862585026136125 0.5081804160922974 0.4551744120247325
0.7539822368615504 0.5866087311917267 0.5087225915390823 0.4557825568145817
0.7571238295151402 0.5869256918169894 0.5092136433995047 0.45633371165249104
0.7602654221687299 0.5872093583447215 0.5096534185925097 0.45682759993700905
0.7634070148223198 0.5874597073821008 0.5100417798516328 0.45726397314664613
0.7665486074759096 0.5876767182883196 0.510378605824076 0.4576426111811136
0.7696902001294994 0.5878603731747907 0.5106637911583749 0.4579633226646944
0.7728317927830891 0.5880106569047068 0.5108972465812021 0.4582259452113764
0.7759733854366789 0.588127557093427 0.5110788989619279 0.45843034565008445
0.7791149780902688 0.5882110641086622 0.5112086913656575 0.4585764202099214
0.7822565707438586 0.5882611710698966 0.5112865830951869 0.45866409466524116
0.7853981633974483 0.5882778738489418 0.5113125497202091 0.4586933244390212
0.7885397560510381 0.5882611710698908 0.5112865830951896 0.4586640946652425
0.7916813487046279 0.5882110641086569 0.511208691365661 0.4585764202099236
0.7948229413582177 0.5881275570934323 0.5110788989619226 0.45843034565008045
